#  E (eV)   dos(E)     Int dos(E) EFermi =    7.114 eV
 -12.573  0.0000E+00  0.0000E+00
 -12.563  0.4262E-02  0.1421E-04
 -12.553  0.1654E-01  0.1129E-03
 -12.543  0.3273E-01  0.3568E-03
 -12.533  0.5193E-01  0.7776E-03
 -12.523  0.7415E-01  0.1405E-02
 -12.513  0.9938E-01  0.2271E-02
 -12.503  0.1272E+00  0.3402E-02
 -12.493  0.1570E+00  0.4821E-02
 -12.483  0.1889E+00  0.6549E-02
 -12.473  0.2229E+00  0.8606E-02
 -12.463  0.2435E+00  0.1099E-01
 -12.453  0.2294E+00  0.1336E-01
 -12.443  0.2360E+00  0.1565E-01
 -12.433  0.2512E+00  0.1809E-01
 -12.423  0.2637E+00  0.2067E-01
 -12.413  0.2734E+00  0.2336E-01
 -12.403  0.2821E+00  0.2613E-01
 -12.393  0.2921E+00  0.2900E-01
 -12.383  0.3003E+00  0.3196E-01
 -12.373  0.3065E+00  0.3500E-01
 -12.363  0.3172E+00  0.3811E-01
 -12.353  0.3292E+00  0.4135E-01
 -12.343  0.3411E+00  0.4470E-01
 -12.333  0.3216E+00  0.4790E-01
 -12.323  0.3409E+00  0.5121E-01
 -12.313  0.3621E+00  0.5473E-01
 -12.303  0.3853E+00  0.5846E-01
 -12.293  0.4107E+00  0.6244E-01
 -12.283  0.4389E+00  0.6669E-01
 -12.273  0.4699E+00  0.7123E-01
 -12.263  0.4628E+00  0.7598E-01
 -12.253  0.4813E+00  0.8070E-01
 -12.243  0.5015E+00  0.8561E-01
 -12.233  0.5260E+00  0.9075E-01
 -12.223  0.5518E+00  0.9614E-01
 -12.213  0.5753E+00  0.1018E+00
 -12.203  0.5963E+00  0.1076E+00
 -12.193  0.6137E+00  0.1137E+00
 -12.183  0.6253E+00  0.1199E+00
 -12.173  0.6338E+00  0.1262E+00
 -12.163  0.6395E+00  0.1326E+00
 -12.153  0.6421E+00  0.1390E+00
 -12.143  0.6328E+00  0.1454E+00
 -12.133  0.6009E+00  0.1515E+00
 -12.123  0.5849E+00  0.1574E+00
 -12.113  0.5865E+00  0.1633E+00
 -12.103  0.5884E+00  0.1692E+00
 -12.093  0.5908E+00  0.1751E+00
 -12.083  0.5935E+00  0.1810E+00
 -12.073  0.5966E+00  0.1869E+00
 -12.063  0.5999E+00  0.1929E+00
 -12.053  0.6032E+00  0.1989E+00
 -12.043  0.6055E+00  0.2050E+00
 -12.033  0.6078E+00  0.2110E+00
 -12.023  0.6100E+00  0.2171E+00
 -12.013  0.6128E+00  0.2232E+00
 -12.003  0.6152E+00  0.2294E+00
 -11.993  0.6172E+00  0.2355E+00
 -11.983  0.6189E+00  0.2417E+00
 -11.973  0.6200E+00  0.2479E+00
 -11.963  0.6206E+00  0.2541E+00
 -11.953  0.6207E+00  0.2603E+00
 -11.943  0.6210E+00  0.2665E+00
 -11.933  0.6212E+00  0.2727E+00
 -11.923  0.6203E+00  0.2790E+00
 -11.913  0.6186E+00  0.2852E+00
 -11.903  0.6170E+00  0.2913E+00
 -11.893  0.6157E+00  0.2975E+00
 -11.883  0.6147E+00  0.3036E+00
 -11.873  0.6140E+00  0.3098E+00
 -11.863  0.6137E+00  0.3159E+00
 -11.853  0.6137E+00  0.3221E+00
 -11.843  0.6141E+00  0.3282E+00
 -11.833  0.6150E+00  0.3343E+00
 -11.823  0.6138E+00  0.3405E+00
 -11.813  0.6115E+00  0.3466E+00
 -11.803  0.6122E+00  0.3527E+00
 -11.793  0.6127E+00  0.3589E+00
 -11.783  0.6132E+00  0.3650E+00
 -11.773  0.6135E+00  0.3711E+00
 -11.763  0.6141E+00  0.3773E+00
 -11.753  0.6148E+00  0.3834E+00
 -11.743  0.6154E+00  0.3896E+00
 -11.733  0.6159E+00  0.3957E+00
 -11.723  0.6163E+00  0.4019E+00
 -11.713  0.6167E+00  0.4080E+00
 -11.703  0.6139E+00  0.4142E+00
 -11.693  0.6151E+00  0.4203E+00
 -11.683  0.6162E+00  0.4265E+00
 -11.673  0.6174E+00  0.4327E+00
 -11.663  0.6186E+00  0.4388E+00
 -11.653  0.6197E+00  0.4450E+00
 -11.643  0.6209E+00  0.4512E+00
 -11.633  0.6181E+00  0.4574E+00
 -11.623  0.6180E+00  0.4636E+00
 -11.613  0.6177E+00  0.4698E+00
 -11.603  0.6175E+00  0.4760E+00
 -11.593  0.6174E+00  0.4822E+00
 -11.583  0.6173E+00  0.4883E+00
 -11.573  0.6172E+00  0.4945E+00
 -11.563  0.6168E+00  0.5007E+00
 -11.553  0.6162E+00  0.5068E+00
 -11.543  0.6155E+00  0.5130E+00
 -11.533  0.6148E+00  0.5191E+00
 -11.523  0.6141E+00  0.5253E+00
 -11.513  0.6110E+00  0.5314E+00
 -11.503  0.6076E+00  0.5375E+00
 -11.493  0.6079E+00  0.5436E+00
 -11.483  0.6084E+00  0.5497E+00
 -11.473  0.6088E+00  0.5558E+00
 -11.463  0.6093E+00  0.5618E+00
 -11.453  0.6097E+00  0.5679E+00
 -11.443  0.6102E+00  0.5740E+00
 -11.433  0.6106E+00  0.5801E+00
 -11.423  0.6111E+00  0.5863E+00
 -11.413  0.6117E+00  0.5924E+00
 -11.403  0.6124E+00  0.5985E+00
 -11.393  0.6131E+00  0.6046E+00
 -11.383  0.6138E+00  0.6107E+00
 -11.373  0.6146E+00  0.6169E+00
 -11.363  0.6155E+00  0.6230E+00
 -11.353  0.6164E+00  0.6292E+00
 -11.343  0.6173E+00  0.6354E+00
 -11.333  0.6184E+00  0.6415E+00
 -11.323  0.6194E+00  0.6477E+00
 -11.313  0.6206E+00  0.6539E+00
 -11.303  0.6218E+00  0.6601E+00
 -11.293  0.6231E+00  0.6664E+00
 -11.283  0.6240E+00  0.6726E+00
 -11.273  0.6246E+00  0.6789E+00
 -11.263  0.6251E+00  0.6851E+00
 -11.253  0.6253E+00  0.6914E+00
 -11.243  0.6254E+00  0.6976E+00
 -11.233  0.6254E+00  0.7039E+00
 -11.223  0.6253E+00  0.7101E+00
 -11.213  0.6250E+00  0.7164E+00
 -11.203  0.6246E+00  0.7226E+00
 -11.193  0.6242E+00  0.7289E+00
 -11.183  0.6238E+00  0.7351E+00
 -11.173  0.6234E+00  0.7413E+00
 -11.163  0.6231E+00  0.7476E+00
 -11.153  0.6229E+00  0.7538E+00
 -11.143  0.6229E+00  0.7600E+00
 -11.133  0.6230E+00  0.7663E+00
 -11.123  0.6232E+00  0.7725E+00
 -11.113  0.6234E+00  0.7787E+00
 -11.103  0.6233E+00  0.7850E+00
 -11.093  0.6233E+00  0.7912E+00
 -11.083  0.6231E+00  0.7974E+00
 -11.073  0.6232E+00  0.8036E+00
 -11.063  0.6232E+00  0.8099E+00
 -11.053  0.6231E+00  0.8161E+00
 -11.043  0.6229E+00  0.8223E+00
 -11.033  0.6226E+00  0.8286E+00
 -11.023  0.6220E+00  0.8348E+00
 -11.013  0.6214E+00  0.8410E+00
 -11.003  0.6207E+00  0.8472E+00
 -10.993  0.6200E+00  0.8534E+00
 -10.983  0.6189E+00  0.8596E+00
 -10.973  0.6178E+00  0.8658E+00
 -10.963  0.6168E+00  0.8720E+00
 -10.953  0.6159E+00  0.8781E+00
 -10.943  0.6150E+00  0.8843E+00
 -10.933  0.6143E+00  0.8904E+00
 -10.923  0.6137E+00  0.8966E+00
 -10.913  0.6133E+00  0.9027E+00
 -10.903  0.6129E+00  0.9088E+00
 -10.893  0.6128E+00  0.9150E+00
 -10.883  0.6130E+00  0.9211E+00
 -10.873  0.6133E+00  0.9272E+00
 -10.863  0.6137E+00  0.9334E+00
 -10.853  0.6141E+00  0.9395E+00
 -10.843  0.6146E+00  0.9457E+00
 -10.833  0.6150E+00  0.9518E+00
 -10.823  0.6155E+00  0.9580E+00
 -10.813  0.6160E+00  0.9641E+00
 -10.803  0.6165E+00  0.9703E+00
 -10.793  0.6171E+00  0.9764E+00
 -10.783  0.6176E+00  0.9826E+00
 -10.773  0.6181E+00  0.9888E+00
 -10.763  0.6187E+00  0.9950E+00
 -10.753  0.6193E+00  0.1001E+01
 -10.743  0.6200E+00  0.1007E+01
 -10.733  0.6206E+00  0.1014E+01
 -10.723  0.6212E+00  0.1020E+01
 -10.713  0.6218E+00  0.1026E+01
 -10.703  0.6224E+00  0.1032E+01
 -10.693  0.6231E+00  0.1038E+01
 -10.683  0.6237E+00  0.1045E+01
 -10.673  0.6244E+00  0.1051E+01
 -10.663  0.6251E+00  0.1057E+01
 -10.653  0.6258E+00  0.1063E+01
 -10.643  0.6265E+00  0.1070E+01
 -10.633  0.6273E+00  0.1076E+01
 -10.623  0.6280E+00  0.1082E+01
 -10.613  0.6288E+00  0.1089E+01
 -10.603  0.6296E+00  0.1095E+01
 -10.593  0.6304E+00  0.1101E+01
 -10.583  0.6313E+00  0.1107E+01
 -10.573  0.6322E+00  0.1114E+01
 -10.563  0.6321E+00  0.1120E+01
 -10.553  0.6314E+00  0.1126E+01
 -10.543  0.6314E+00  0.1133E+01
 -10.533  0.6315E+00  0.1139E+01
 -10.523  0.6314E+00  0.1145E+01
 -10.513  0.6314E+00  0.1152E+01
 -10.503  0.6314E+00  0.1158E+01
 -10.493  0.6315E+00  0.1164E+01
 -10.483  0.6315E+00  0.1171E+01
 -10.473  0.6314E+00  0.1177E+01
 -10.463  0.6314E+00  0.1183E+01
 -10.453  0.6302E+00  0.1190E+01
 -10.443  0.6304E+00  0.1196E+01
 -10.433  0.6306E+00  0.1202E+01
 -10.423  0.6307E+00  0.1208E+01
 -10.413  0.6309E+00  0.1215E+01
 -10.403  0.6311E+00  0.1221E+01
 -10.393  0.6313E+00  0.1227E+01
 -10.383  0.6300E+00  0.1234E+01
 -10.373  0.6296E+00  0.1240E+01
 -10.363  0.6292E+00  0.1246E+01
 -10.353  0.6288E+00  0.1253E+01
 -10.343  0.6285E+00  0.1259E+01
 -10.333  0.6282E+00  0.1265E+01
 -10.323  0.6278E+00  0.1271E+01
 -10.313  0.6273E+00  0.1278E+01
 -10.303  0.6268E+00  0.1284E+01
 -10.293  0.6263E+00  0.1290E+01
 -10.283  0.6255E+00  0.1296E+01
 -10.273  0.6239E+00  0.1303E+01
 -10.263  0.6231E+00  0.1309E+01
 -10.253  0.6230E+00  0.1315E+01
 -10.243  0.6229E+00  0.1321E+01
 -10.233  0.6228E+00  0.1328E+01
 -10.223  0.6227E+00  0.1334E+01
 -10.213  0.6227E+00  0.1340E+01
 -10.203  0.6226E+00  0.1346E+01
 -10.193  0.6225E+00  0.1353E+01
 -10.183  0.6224E+00  0.1359E+01
 -10.173  0.6225E+00  0.1365E+01
 -10.163  0.6225E+00  0.1371E+01
 -10.153  0.6225E+00  0.1377E+01
 -10.143  0.6226E+00  0.1384E+01
 -10.133  0.6227E+00  0.1390E+01
 -10.123  0.6229E+00  0.1396E+01
 -10.113  0.6230E+00  0.1402E+01
 -10.103  0.6232E+00  0.1409E+01
 -10.093  0.6234E+00  0.1415E+01
 -10.083  0.6237E+00  0.1421E+01
 -10.073  0.6240E+00  0.1427E+01
 -10.063  0.6244E+00  0.1434E+01
 -10.053  0.6248E+00  0.1440E+01
 -10.043  0.6252E+00  0.1446E+01
 -10.033  0.6256E+00  0.1452E+01
 -10.023  0.6260E+00  0.1459E+01
 -10.013  0.6264E+00  0.1465E+01
 -10.003  0.6269E+00  0.1471E+01
  -9.993  0.6273E+00  0.1477E+01
  -9.983  0.6277E+00  0.1484E+01
  -9.973  0.6281E+00  0.1490E+01
  -9.963  0.6285E+00  0.1496E+01
  -9.953  0.6290E+00  0.1502E+01
  -9.943  0.6294E+00  0.1509E+01
  -9.933  0.6298E+00  0.1515E+01
  -9.923  0.6303E+00  0.1521E+01
  -9.913  0.6307E+00  0.1528E+01
  -9.903  0.6312E+00  0.1534E+01
  -9.893  0.6317E+00  0.1540E+01
  -9.883  0.6322E+00  0.1547E+01
  -9.873  0.6327E+00  0.1553E+01
  -9.863  0.6332E+00  0.1559E+01
  -9.853  0.6337E+00  0.1566E+01
  -9.843  0.6342E+00  0.1572E+01
  -9.833  0.6347E+00  0.1578E+01
  -9.823  0.6352E+00  0.1585E+01
  -9.813  0.6358E+00  0.1591E+01
  -9.803  0.6363E+00  0.1597E+01
  -9.793  0.6368E+00  0.1604E+01
  -9.783  0.6374E+00  0.1610E+01
  -9.773  0.6379E+00  0.1616E+01
  -9.763  0.6385E+00  0.1623E+01
  -9.753  0.6390E+00  0.1629E+01
  -9.743  0.6396E+00  0.1636E+01
  -9.733  0.6401E+00  0.1642E+01
  -9.723  0.6403E+00  0.1648E+01
  -9.713  0.6406E+00  0.1655E+01
  -9.703  0.6407E+00  0.1661E+01
  -9.693  0.6408E+00  0.1668E+01
  -9.683  0.6408E+00  0.1674E+01
  -9.673  0.6407E+00  0.1680E+01
  -9.663  0.6407E+00  0.1687E+01
  -9.653  0.6406E+00  0.1693E+01
  -9.643  0.6404E+00  0.1700E+01
  -9.633  0.6402E+00  0.1706E+01
  -9.623  0.6400E+00  0.1712E+01
  -9.613  0.6399E+00  0.1719E+01
  -9.603  0.6398E+00  0.1725E+01
  -9.593  0.6398E+00  0.1732E+01
  -9.583  0.6398E+00  0.1738E+01
  -9.573  0.6399E+00  0.1744E+01
  -9.563  0.6399E+00  0.1751E+01
  -9.553  0.6398E+00  0.1757E+01
  -9.543  0.6397E+00  0.1764E+01
  -9.533  0.6397E+00  0.1770E+01
  -9.523  0.6396E+00  0.1776E+01
  -9.513  0.6396E+00  0.1783E+01
  -9.503  0.6394E+00  0.1789E+01
  -9.493  0.6392E+00  0.1796E+01
  -9.483  0.6390E+00  0.1802E+01
  -9.473  0.6386E+00  0.1808E+01
  -9.463  0.6382E+00  0.1815E+01
  -9.453  0.6377E+00  0.1821E+01
  -9.443  0.6372E+00  0.1828E+01
  -9.433  0.6368E+00  0.1834E+01
  -9.423  0.6363E+00  0.1840E+01
  -9.413  0.6360E+00  0.1847E+01
  -9.403  0.6356E+00  0.1853E+01
  -9.393  0.6354E+00  0.1859E+01
  -9.383  0.6351E+00  0.1866E+01
  -9.373  0.6350E+00  0.1872E+01
  -9.363  0.6349E+00  0.1878E+01
  -9.353  0.6349E+00  0.1885E+01
  -9.343  0.6350E+00  0.1891E+01
  -9.333  0.6351E+00  0.1897E+01
  -9.323  0.6352E+00  0.1904E+01
  -9.313  0.6353E+00  0.1910E+01
  -9.303  0.6354E+00  0.1917E+01
  -9.293  0.6356E+00  0.1923E+01
  -9.283  0.6357E+00  0.1929E+01
  -9.273  0.6359E+00  0.1936E+01
  -9.263  0.6361E+00  0.1942E+01
  -9.253  0.6363E+00  0.1948E+01
  -9.243  0.6365E+00  0.1955E+01
  -9.233  0.6367E+00  0.1961E+01
  -9.223  0.6369E+00  0.1967E+01
  -9.213  0.6372E+00  0.1974E+01
  -9.203  0.6374E+00  0.1980E+01
  -9.193  0.6377E+00  0.1987E+01
  -9.183  0.6380E+00  0.1993E+01
  -9.173  0.6382E+00  0.1999E+01
  -9.163  0.6385E+00  0.2006E+01
  -9.153  0.6388E+00  0.2012E+01
  -9.143  0.6391E+00  0.2018E+01
  -9.133  0.6394E+00  0.2025E+01
  -9.123  0.6397E+00  0.2031E+01
  -9.113  0.6400E+00  0.2038E+01
  -9.103  0.6403E+00  0.2044E+01
  -9.093  0.6407E+00  0.2050E+01
  -9.083  0.6411E+00  0.2057E+01
  -9.073  0.6414E+00  0.2063E+01
  -9.063  0.6418E+00  0.2070E+01
  -9.053  0.6423E+00  0.2076E+01
  -9.043  0.6427E+00  0.2083E+01
  -9.033  0.6432E+00  0.2089E+01
  -9.023  0.6436E+00  0.2095E+01
  -9.013  0.6441E+00  0.2102E+01
  -9.003  0.6445E+00  0.2108E+01
  -8.993  0.6449E+00  0.2115E+01
  -8.983  0.6454E+00  0.2121E+01
  -8.973  0.6458E+00  0.2128E+01
  -8.963  0.6463E+00  0.2134E+01
  -8.953  0.6467E+00  0.2141E+01
  -8.943  0.6472E+00  0.2147E+01
  -8.933  0.6476E+00  0.2153E+01
  -8.923  0.6481E+00  0.2160E+01
  -8.913  0.6485E+00  0.2166E+01
  -8.903  0.6489E+00  0.2173E+01
  -8.893  0.6494E+00  0.2179E+01
  -8.883  0.6498E+00  0.2186E+01
  -8.873  0.6503E+00  0.2192E+01
  -8.863  0.6507E+00  0.2199E+01
  -8.853  0.6512E+00  0.2205E+01
  -8.843  0.6516E+00  0.2212E+01
  -8.833  0.6521E+00  0.2218E+01
  -8.823  0.6525E+00  0.2225E+01
  -8.813  0.6530E+00  0.2232E+01
  -8.803  0.6534E+00  0.2238E+01
  -8.793  0.6539E+00  0.2245E+01
  -8.783  0.6544E+00  0.2251E+01
  -8.773  0.6549E+00  0.2258E+01
  -8.763  0.6553E+00  0.2264E+01
  -8.753  0.6558E+00  0.2271E+01
  -8.743  0.6563E+00  0.2277E+01
  -8.733  0.6568E+00  0.2284E+01
  -8.723  0.6569E+00  0.2290E+01
  -8.713  0.6568E+00  0.2297E+01
  -8.703  0.6569E+00  0.2304E+01
  -8.693  0.6571E+00  0.2310E+01
  -8.683  0.6572E+00  0.2317E+01
  -8.673  0.6574E+00  0.2323E+01
  -8.663  0.6575E+00  0.2330E+01
  -8.653  0.6577E+00  0.2336E+01
  -8.643  0.6578E+00  0.2343E+01
  -8.633  0.6580E+00  0.2350E+01
  -8.623  0.6578E+00  0.2356E+01
  -8.613  0.6580E+00  0.2363E+01
  -8.603  0.6583E+00  0.2369E+01
  -8.593  0.6586E+00  0.2376E+01
  -8.583  0.6589E+00  0.2383E+01
  -8.573  0.6592E+00  0.2389E+01
  -8.563  0.6588E+00  0.2396E+01
  -8.553  0.6589E+00  0.2402E+01
  -8.543  0.6590E+00  0.2409E+01
  -8.533  0.6591E+00  0.2415E+01
  -8.523  0.6591E+00  0.2422E+01
  -8.513  0.6592E+00  0.2429E+01
  -8.503  0.6592E+00  0.2435E+01
  -8.493  0.6592E+00  0.2442E+01
  -8.483  0.6592E+00  0.2448E+01
  -8.473  0.6589E+00  0.2455E+01
  -8.463  0.6587E+00  0.2462E+01
  -8.453  0.6589E+00  0.2468E+01
  -8.443  0.6592E+00  0.2475E+01
  -8.433  0.6594E+00  0.2481E+01
  -8.423  0.6597E+00  0.2488E+01
  -8.413  0.6600E+00  0.2495E+01
  -8.403  0.6602E+00  0.2501E+01
  -8.393  0.6605E+00  0.2508E+01
  -8.383  0.6608E+00  0.2514E+01
  -8.373  0.6611E+00  0.2521E+01
  -8.363  0.6614E+00  0.2528E+01
  -8.353  0.6617E+00  0.2534E+01
  -8.343  0.6621E+00  0.2541E+01
  -8.333  0.6624E+00  0.2547E+01
  -8.323  0.6628E+00  0.2554E+01
  -8.313  0.6632E+00  0.2561E+01
  -8.303  0.6636E+00  0.2567E+01
  -8.293  0.6641E+00  0.2574E+01
  -8.283  0.6645E+00  0.2581E+01
  -8.273  0.6650E+00  0.2587E+01
  -8.263  0.6655E+00  0.2594E+01
  -8.253  0.6661E+00  0.2601E+01
  -8.243  0.6666E+00  0.2607E+01
  -8.233  0.6671E+00  0.2614E+01
  -8.223  0.6677E+00  0.2621E+01
  -8.213  0.6682E+00  0.2627E+01
  -8.203  0.6687E+00  0.2634E+01
  -8.193  0.6693E+00  0.2641E+01
  -8.183  0.6698E+00  0.2647E+01
  -8.173  0.6703E+00  0.2654E+01
  -8.163  0.6709E+00  0.2661E+01
  -8.153  0.6714E+00  0.2667E+01
  -8.143  0.6719E+00  0.2674E+01
  -8.133  0.6725E+00  0.2681E+01
  -8.123  0.6731E+00  0.2688E+01
  -8.113  0.6739E+00  0.2694E+01
  -8.103  0.6747E+00  0.2701E+01
  -8.093  0.6755E+00  0.2708E+01
  -8.083  0.6764E+00  0.2715E+01
  -8.073  0.6773E+00  0.2721E+01
  -8.063  0.6783E+00  0.2728E+01
  -8.053  0.6793E+00  0.2735E+01
  -8.043  0.6803E+00  0.2742E+01
  -8.033  0.6815E+00  0.2749E+01
  -8.023  0.6826E+00  0.2755E+01
  -8.013  0.6838E+00  0.2762E+01
  -8.003  0.6849E+00  0.2769E+01
  -7.993  0.6861E+00  0.2776E+01
  -7.983  0.6873E+00  0.2783E+01
  -7.973  0.6886E+00  0.2790E+01
  -7.963  0.6900E+00  0.2797E+01
  -7.953  0.6913E+00  0.2803E+01
  -7.943  0.6928E+00  0.2810E+01
  -7.933  0.6943E+00  0.2817E+01
  -7.923  0.6958E+00  0.2824E+01
  -7.913  0.6974E+00  0.2831E+01
  -7.903  0.6991E+00  0.2838E+01
  -7.893  0.7009E+00  0.2845E+01
  -7.883  0.7028E+00  0.2852E+01
  -7.873  0.7048E+00  0.2859E+01
  -7.863  0.7068E+00  0.2866E+01
  -7.853  0.7087E+00  0.2873E+01
  -7.843  0.7107E+00  0.2881E+01
  -7.833  0.7126E+00  0.2888E+01
  -7.823  0.7146E+00  0.2895E+01
  -7.813  0.7166E+00  0.2902E+01
  -7.803  0.7185E+00  0.2909E+01
  -7.793  0.7205E+00  0.2916E+01
  -7.783  0.7225E+00  0.2924E+01
  -7.773  0.7244E+00  0.2931E+01
  -7.763  0.7264E+00  0.2938E+01
  -7.753  0.7284E+00  0.2945E+01
  -7.743  0.7303E+00  0.2953E+01
  -7.733  0.7323E+00  0.2960E+01
  -7.723  0.7342E+00  0.2967E+01
  -7.713  0.7362E+00  0.2975E+01
  -7.703  0.7382E+00  0.2982E+01
  -7.693  0.7401E+00  0.2989E+01
  -7.683  0.7421E+00  0.2997E+01
  -7.673  0.7441E+00  0.3004E+01
  -7.663  0.7460E+00  0.3012E+01
  -7.653  0.7480E+00  0.3019E+01
  -7.643  0.7500E+00  0.3027E+01
  -7.633  0.7519E+00  0.3034E+01
  -7.623  0.7539E+00  0.3042E+01
  -7.613  0.7558E+00  0.3049E+01
  -7.603  0.7577E+00  0.3057E+01
  -7.593  0.7597E+00  0.3064E+01
  -7.583  0.7616E+00  0.3072E+01
  -7.573  0.7912E+00  0.3080E+01
  -7.563  0.8041E+00  0.3088E+01
  -7.553  0.8148E+00  0.3096E+01
  -7.543  0.8252E+00  0.3104E+01
  -7.533  0.8323E+00  0.3112E+01
  -7.523  0.8390E+00  0.3121E+01
  -7.513  0.8455E+00  0.3129E+01
  -7.503  0.8517E+00  0.3138E+01
  -7.493  0.8694E+00  0.3146E+01
  -7.483  0.8673E+00  0.3155E+01
  -7.473  0.8652E+00  0.3163E+01
  -7.463  0.8633E+00  0.3172E+01
  -7.453  0.8614E+00  0.3181E+01
  -7.443  0.8817E+00  0.3190E+01
  -7.433  0.8866E+00  0.3198E+01
  -7.423  0.8910E+00  0.3207E+01
  -7.413  0.8953E+00  0.3216E+01
  -7.403  0.9004E+00  0.3225E+01
  -7.393  0.9079E+00  0.3234E+01
  -7.383  0.9149E+00  0.3243E+01
  -7.373  0.9253E+00  0.3252E+01
  -7.363  0.9507E+00  0.3262E+01
  -7.353  0.9433E+00  0.3271E+01
  -7.343  0.9361E+00  0.3281E+01
  -7.333  0.9290E+00  0.3290E+01
  -7.323  0.9222E+00  0.3299E+01
  -7.313  0.9155E+00  0.3309E+01
  -7.303  0.9088E+00  0.3318E+01
  -7.293  0.9726E+00  0.3327E+01
  -7.283  0.1006E+01  0.3337E+01
  -7.273  0.1024E+01  0.3347E+01
  -7.263  0.1040E+01  0.3357E+01
  -7.253  0.1045E+01  0.3368E+01
  -7.243  0.1048E+01  0.3378E+01
  -7.233  0.1050E+01  0.3389E+01
  -7.223  0.1050E+01  0.3399E+01
  -7.213  0.1082E+01  0.3410E+01
  -7.203  0.1053E+01  0.3421E+01
  -7.193  0.1024E+01  0.3431E+01
  -7.183  0.9952E+00  0.3441E+01
  -7.173  0.9661E+00  0.3451E+01
  -7.163  0.1015E+01  0.3461E+01
  -7.153  0.1006E+01  0.3471E+01
  -7.143  0.9951E+00  0.3481E+01
  -7.133  0.9824E+00  0.3491E+01
  -7.123  0.9771E+00  0.3501E+01
  -7.113  0.9745E+00  0.3511E+01
  -7.103  0.9684E+00  0.3520E+01
  -7.093  0.1013E+01  0.3530E+01
  -7.083  0.1010E+01  0.3541E+01
  -7.073  0.9496E+00  0.3550E+01
  -7.063  0.8926E+00  0.3560E+01
  -7.053  0.8384E+00  0.3568E+01
  -7.043  0.7867E+00  0.3576E+01
  -7.033  0.7384E+00  0.3584E+01
  -7.023  0.6933E+00  0.3591E+01
  -7.013  0.6481E+00  0.3598E+01
  -7.003  0.6054E+00  0.3604E+01
  -6.993  0.5688E+00  0.3610E+01
  -6.983  0.5368E+00  0.3615E+01
  -6.973  0.5122E+00  0.3621E+01
  -6.963  0.5017E+00  0.3626E+01
  -6.953  0.4975E+00  0.3631E+01
  -6.943  0.4934E+00  0.3636E+01
  -6.933  0.4893E+00  0.3641E+01
  -6.923  0.4851E+00  0.3645E+01
  -6.913  0.4810E+00  0.3650E+01
  -6.903  0.4769E+00  0.3655E+01
  -6.893  0.4727E+00  0.3660E+01
  -6.883  0.4686E+00  0.3665E+01
  -6.873  0.4645E+00  0.3669E+01
  -6.863  0.4604E+00  0.3674E+01
  -6.853  0.4562E+00  0.3678E+01
  -6.843  0.4521E+00  0.3683E+01
  -6.833  0.4480E+00  0.3687E+01
  -6.823  0.4438E+00  0.3692E+01
  -6.813  0.4397E+00  0.3696E+01
  -6.803  0.4356E+00  0.3701E+01
  -6.793  0.4314E+00  0.3705E+01
  -6.783  0.4273E+00  0.3709E+01
  -6.773  0.4232E+00  0.3714E+01
  -6.763  0.4190E+00  0.3718E+01
  -6.753  0.4149E+00  0.3722E+01
  -6.743  0.4108E+00  0.3726E+01
  -6.733  0.4066E+00  0.3730E+01
  -6.723  0.4025E+00  0.3734E+01
  -6.713  0.3984E+00  0.3738E+01
  -6.703  0.3942E+00  0.3742E+01
  -6.693  0.3901E+00  0.3746E+01
  -6.683  0.3860E+00  0.3750E+01
  -6.673  0.3818E+00  0.3754E+01
  -6.663  0.3777E+00  0.3758E+01
  -6.653  0.3736E+00  0.3761E+01
  -6.643  0.3694E+00  0.3765E+01
  -6.633  0.3653E+00  0.3769E+01
  -6.623  0.3612E+00  0.3772E+01
  -6.613  0.3570E+00  0.3776E+01
  -6.603  0.3529E+00  0.3780E+01
  -6.593  0.3488E+00  0.3783E+01
  -6.583  0.3446E+00  0.3787E+01
  -6.573  0.3405E+00  0.3790E+01
  -6.563  0.3364E+00  0.3793E+01
  -6.553  0.3322E+00  0.3797E+01
  -6.543  0.3346E+00  0.3800E+01
